Date,Adj Close,Close,High,Low,Open,Volume
2023-07-14,116.84815216064453,118.3499984741211,118.83999633789062,116.69999694824219,117.69000244140625,271600
2023-07-17,117.74661254882812,119.26000213623047,119.54000091552734,117.16000366210938,118.4000015258789,234200
2023-07-18,117.56889343261719,119.08000183105469,120.37000274658203,118.69999694824219,119.01000213623047,189100
2023-07-19,117.59850311279297,119.11000061035156,119.41000366210938,118.30999755859375,118.75,247200
2023-07-20,117.81571960449219,119.33000183105469,120.22000122070312,118.86000061035156,119.77999877929688,175800
2023-07-21,118.31924438476562,119.83999633789062,120.05000305175781,118.87000274658203,119.6500015258789,184300
2023-07-24,118.21063995361328,119.7300033569336,120.48999786376953,118.70999908447266,120.0199966430664,163400
2023-07-25,119.03010559082031,120.55999755859375,121.12000274658203,119.30000305175781,119.68000030517578,250700
2023-07-26,118.83197021484375,119.94999694824219,120.4000015258789,118.81999969482422,120.16000366210938,306900
2023-07-27,118.02952575683594,119.13999938964844,120.77999877929688,118.73999786376953,120.05999755859375,407800
2023-07-28,122.62627410888672,123.77999877929688,126.98999786376953,121.87999725341797,122.48999786376953,513000
2023-07-31,120.3279037475586,121.45999908447266,123.93000030517578,120.83000183105469,123.5199966430664,746500
2023-08-01,121.29876708984375,122.44000244140625,122.5,120.75,121.23999786376953,365300
2023-08-02,121.10063171386719,122.23999786376953,122.33000183105469,119.9800033569336,121.44000244140625,329200
2023-08-03,119.6839599609375,120.80999755859375,122.7300033569336,120.72000122070312,121.5199966430664,195900
2023-08-04,119.51554870605469,120.63999938964844,122.12999725341797,120.4800033569336,120.62000274658203,116500
2023-08-07,120.15949249267578,121.29000091552734,121.66000366210938,120.51000213623047,120.7300033569336,140300
2023-08-08,119.99107360839844,121.12000274658203,121.4000015258789,119.70999908447266,120.08000183105469,270100
2023-08-09,120.6944580078125,121.83000183105469,123.38999938964844,120.5199966430664,121.12000274658203,287500
2023-08-10,121.09072875976562,122.2300033569336,123.56999969482422,121.80000305175781,121.80000305175781,216000
2023-08-11,121.4671859741211,122.61000061035156,123.22000122070312,121.51000213623047,121.51000213623047,226500
2023-08-14,121.84363555908203,122.98999786376953,122.98999786376953,121.58000183105469,122.02999877929688,145700
2023-08-15,120.9520263671875,122.08999633789062,122.93000030517578,121.9800033569336,122.62999725341797,249000
2023-08-16,120.40715789794922,121.54000091552734,123.16000366210938,121.48999786376953,121.7300033569336,291100
2023-08-17,120.50621795654297,121.63999938964844,122.66000366210938,121.62000274658203,121.95999908447266,186600
2023-08-18,122.1408462524414,123.29000091552734,123.41999816894531,121.37999725341797,121.37999725341797,443100
2023-08-21,122.62627410888672,123.77999877929688,124.45999908447266,123.05999755859375,123.1500015258789,358800
2023-08-22,121.80401611328125,122.94999694824219,125.70999908447266,122.76000213623047,123.87000274658203,429600
2023-08-23,122.23990631103516,123.38999938964844,123.55999755859375,122.30999755859375,123.05999755859375,305000
2023-08-24,123.94387817382812,125.11000061035156,125.45999908447266,122.58999633789062,123.48999786376953,278400
2023-08-25,126.35123443603516,127.54000091552734,127.68000030517578,124.9800033569336,125.56999969482422,493000
2023-08-28,128.20379638671875,129.41000366210938,129.5800018310547,127.62999725341797,127.62999725341797,331900
2023-08-29,130.59133911132812,131.82000732421875,131.9600067138672,129.39999389648438,129.8000030517578,472400
2023-08-30,131.6513671875,132.88999938964844,133.25999450683594,131.6999969482422,132.3699951171875,298900
2023-08-31,131.32443237304688,132.55999755859375,133.72999572753906,132.24000549316406,133.27999877929688,305800
2023-09-01,131.31454467773438,132.5500030517578,133.7899932861328,132.52000427246094,133.10000610351562,252000
2023-09-05,126.3809585571289,127.56999969482422,131.97999572753906,127.36000061035156,131.67999267578125,325300
2023-09-06,125.23176574707031,126.41000366210938,128.00999450683594,126.19999694824219,127.79000091552734,291100
2023-09-07,124.1915512084961,125.36000061035156,127.16999816894531,125.13999938964844,126.29000091552734,328600
2023-09-08,124.14201354980469,125.30999755859375,126.66999816894531,125.12000274658203,125.51000213623047,238800
2023-09-11,125.826171875,127.01000213623047,127.93000030517578,126.41000366210938,126.98999786376953,333500
2023-09-12,125.35063934326172,126.52999877929688,127.29000091552734,125.41999816894531,126.11000061035156,258000
2023-09-13,124.20146179199219,125.37000274658203,126.58999633789062,125.11000061035156,125.77999877929688,279300
2023-09-14,125.57850646972656,126.76000213623047,127.30000305175781,126.01000213623047,126.01000213623047,217900
2023-09-15,124.75623321533203,125.93000030517578,127.19999694824219,125.16999816894531,126.48999786376953,589200
2023-09-18,124.46894073486328,125.63999938964844,126.36000061035156,124.91999816894531,126.36000061035156,175100
2023-09-19,124.14201354980469,125.30999755859375,125.69000244140625,124.05999755859375,125.69000244140625,218600
2023-09-20,123.46834564208984,124.62999725341797,126.0999984741211,124.55999755859375,125.83999633789062,206200
2023-09-21,121.08082580566406,122.22000122070312,124.3499984741211,122.19000244140625,124.33000183105469,335700
2023-09-22,121.53653717041016,122.68000030517578,122.9000015258789,122.11000061035156,122.33000183105469,341200
2023-09-25,122.88385772705078,124.04000091552734,124.12999725341797,121.47000122070312,121.98999786376953,258800
2023-09-26,122.44795227050781,123.5999984741211,124.22000122070312,123.2300033569336,123.52999877929688,547000
2023-09-27,122.36869812011719,123.5199966430664,124.44999694824219,122.87000274658203,124.04000091552734,362400
2023-09-28,124.30052185058594,125.47000122070312,125.63999938964844,123.26000213623047,123.86000061035156,219300
2023-09-29,123.8745346069336,125.04000091552734,126.83000183105469,124.79000091552734,126.48999786376953,330900
2023-10-02,123.88444519042969,125.05000305175781,125.4800033569336,123.98999786376953,124.52999877929688,244100
2023-10-03,121.72476196289062,122.87000274658203,125.30999755859375,122.48999786376953,124.0199966430664,236300
2023-10-04,123.07208251953125,124.2300033569336,124.66000366210938,122.33000183105469,123.55000305175781,208200
2023-10-05,122.5965576171875,123.75,124.93000030517578,122.80000305175781,123.95999908447266,466700
2023-10-06,125.23176574707031,126.41000366210938,126.69000244140625,123.38999938964844,123.61000061035156,491700
2023-10-09,125.75682830810547,126.94000244140625,127.22000122070312,125.69000244140625,125.81999969482422,275700
2023-10-10,125.36054992675781,126.54000091552734,128.61000061035156,126.51000213623047,127.23999786376953,322000
2023-10-11,126.34132385253906,127.52999877929688,127.69999694824219,126.6500015258789,127.52999877929688,212900
2023-10-12,124.25098419189453,125.41999816894531,127.4000015258789,125.05999755859375,127.22000122070312,189300
2023-10-13,124.79586791992188,125.97000122070312,126.66999816894531,125.4000015258789,126.0,324900
2023-10-16,125.52896118164062,126.70999908447266,127.43000030517578,126.16999816894531,127.36000061035156,275200
2023-10-17,126.29179382324219,127.4800033569336,128.33999633789062,126.01000213623047,126.01000213623047,314400
2023-10-18,125.59832000732422,126.77999877929688,127.66999816894531,126.27999877929688,126.87000274658203,287300
2023-10-19,124.55810546875,125.7300033569336,127.47000122070312,125.38999938964844,126.08000183105469,443900
2023-10-20,121.08082580566406,122.22000122070312,126.4800033569336,121.93000030517578,125.93000030517578,446500
2023-10-23,120.3675308227539,121.5,123.16000366210938,121.20999908447266,121.72000122070312,379000
2023-10-24,122.19037628173828,123.33999633789062,123.7699966430664,121.72000122070312,122.12999725341797,312100
2023-10-25,121.63375091552734,122.37000274658203,123.77999877929688,121.88999938964844,122.43000030517578,431300
2023-10-26,122.68737030029297,123.43000030517578,125.38999938964844,121.26000213623047,121.26000213623047,576000
2023-10-27,120.44096374511719,121.16999816894531,123.83999633789062,120.36000061035156,123.47000122070312,364000
2023-10-30,121.43495178222656,122.16999816894531,122.31999969482422,120.8499984741211,121.91999816894531,283100
2023-10-31,121.53433990478516,122.2699966430664,122.88999938964844,121.83000183105469,122.51000213623047,422900
2023-11-01,122.19037628173828,122.93000030517578,123.43000030517578,121.61000061035156,122.11000061035156,360500
2023-11-02,122.83647155761719,123.58000183105469,124.29000091552734,122.9800033569336,123.72000122070312,384300
2023-11-03,124.59581756591797,125.3499984741211,125.97000122070312,124.43000030517578,124.43000030517578,278000
2023-11-06,124.43678283691406,125.19000244140625,125.7300033569336,124.75,125.2699966430664,173500
2023-11-07,123.8006362915039,124.55000305175781,124.98999786376953,124.16999816894531,124.62000274658203,205000
2023-11-08,124.36720275878906,125.12000274658203,125.48999786376953,124.41000366210938,124.87999725341797,175800
2023-11-09,123.64159393310547,124.38999938964844,125.69000244140625,124.06999969482422,125.69000244140625,118600
2023-11-10,124.96359252929688,125.72000122070312,125.79000091552734,123.88999938964844,124.23999786376953,195600
2023-11-13,123.78075408935547,124.52999877929688,125.4800033569336,124.37000274658203,125.38999938964844,183100
2023-11-14,127.08078002929688,127.8499984741211,127.86000061035156,125.30999755859375,125.94999694824219,267400
2023-11-15,126.94161987304688,127.70999908447266,128.8000030517578,127.3499984741211,127.81999969482422,388600
2023-11-16,126.78258514404297,127.55000305175781,128.6199951171875,126.83999633789062,127.6500015258789,217000
2023-11-17,127.16029357910156,127.93000030517578,129.0800018310547,127.61000061035156,128.55999755859375,162700
2023-11-20,126.55396270751953,127.31999969482422,127.6500015258789,126.43000030517578,127.44999694824219,213900
2023-11-21,127.14042663574219,127.91000366210938,128.3000030517578,127.19999694824219,127.45999908447266,160600
2023-11-22,127.79645538330078,128.57000732421875,129.1999969482422,127.36000061035156,128.4499969482422,174800
2023-11-24,127.7566909790039,128.52999877929688,128.97000122070312,128.10000610351562,128.97000122070312,65900
2023-11-27,126.23588562011719,127.0,128.3000030517578,126.8499984741211,127.81999969482422,367500
2023-11-28,124.85425567626953,125.61000061035156,127.01000213623047,125.48999786376953,127.0,218000
2023-11-29,124.6156997680664,125.37000274658203,126.4000015258789,124.91999816894531,125.63999938964844,331800
2023-11-30,126.12654876708984,126.88999938964844,127.12999725341797,124.80999755859375,125.44999694824219,301000
2023-12-01,127.32927703857422,128.10000610351562,128.5399932861328,126.41999816894531,126.41999816894531,218300
2023-12-04,127.64734649658203,128.4199981689453,128.8800048828125,126.88999938964844,127.44999694824219,192000
2023-12-05,125.23196411132812,125.98999786376953,128.69000244140625,125.87999725341797,128.25,178000
2023-12-06,125.60968017578125,126.37000274658203,127.30000305175781,125.87999725341797,126.38999938964844,179500
2023-12-07,125.72895812988281,126.48999786376953,127.11000061035156,125.98999786376953,126.23999786376953,254000
2023-12-08,126.55396270751953,127.31999969482422,127.5,125.62000274658203,126.36000061035156,265800
2023-12-11,126.8024673461914,127.56999969482422,127.68000030517578,126.33999633789062,127.26000213623047,338000
2023-12-12,126.71300506591797,127.4800033569336,128.10000610351562,126.68000030517578,127.6500015258789,210300
2023-12-13,127.81632995605469,128.58999633789062,128.99000549316406,127.18000030517578,127.18000030517578,425000
2023-12-14,126.63349151611328,127.4000015258789,130.00999450683594,126.87999725341797,129.0800018310547,412900
2023-12-15,125.22203063964844,125.9800033569336,128.5800018310547,125.97000122070312,127.16000366210938,713000
2023-12-18,126.28559112548828,127.05000305175781,127.20999908447266,125.87999725341797,126.70999908447266,240500
2023-12-19,125.47052764892578,126.2300033569336,128.1300048828125,126.02999877929688,127.70999908447266,659100
2023-12-20,124.81449127197266,125.56999969482422,126.94000244140625,125.45999908447266,126.0199966430664,346400
2023-12-21,125.15245056152344,125.91000366210938,126.23999786376953,124.8499984741211,126.23999786376953,421900
2023-12-22,125.5102767944336,126.2699966430664,127.04000091552734,126.12000274658203,126.4000015258789,312200
2023-12-26,125.07293701171875,125.83000183105469,126.87000274658203,125.58999633789062,126.13999938964844,274700
2023-12-27,124.52623748779297,125.27999877929688,126.47000122070312,125.02999877929688,126.12000274658203,283100
2023-12-28,124.44671630859375,125.19999694824219,125.80000305175781,124.4000015258789,124.9800033569336,343600
2023-12-29,122.87622833251953,123.62000274658203,125.36000061035156,123.55999755859375,125.19000244140625,313500
2024-01-02,122.14067840576172,122.87999725341797,124.0999984741211,122.29000091552734,122.61000061035156,313100
2024-01-03,124.60575866699219,125.36000061035156,127.26000213623047,123.1500015258789,125.1500015258789,531700
2024-01-04,123.47261810302734,124.22000122070312,125.91999816894531,124.12999725341797,125.18000030517578,353300
2024-01-05,123.4527359008789,124.19999694824219,124.37000274658203,122.98999786376953,123.77999877929688,423000
2024-01-08,123.6018295288086,124.3499984741211,125.16000366210938,122.37000274658203,124.06999969482422,352400
2024-01-09,123.88014221191406,124.62999725341797,124.63999938964844,122.97000122070312,123.70999908447266,250300
2024-01-10,124.43678283691406,125.19000244140625,125.41999816894531,124.2300033569336,124.45999908447266,279600
2024-01-11,126.07685089111328,126.83999633789062,126.97000122070312,124.94000244140625,125.37999725341797,323100
2024-01-12,125.66931915283203,126.43000030517578,127.97000122070312,125.91999816894531,127.88999938964844,231700
2024-01-16,126.04703521728516,126.80999755859375,126.81999969482422,125.51000213623047,125.87999725341797,257500
2024-01-17,125.9277572631836,126.69000244140625,127.2699966430664,125.88999938964844,125.94000244140625,336900
2024-01-18,128.36302185058594,129.13999938964844,130.00999450683594,126.30999755859375,127.31999969482422,444200
2024-01-19,130.01303100585938,130.8000030517578,131.4600067138672,128.5399932861328,129.7100067138672,418000
2024-01-22,130.4006805419922,131.19000244140625,131.80999755859375,130.55999755859375,130.89999389648438,266200
2024-01-23,131.03683471679688,131.8300018310547,131.85000610351562,130.3300018310547,131.8000030517578,217800
2024-01-24,129.99314880371094,130.77999877929688,132.2899932861328,130.5399932861328,132.1199951171875,294400
2024-01-25,130.46031188964844,131.25,132.3800048828125,130.3800048828125,132.02999877929688,332300
2024-01-26,130.90760803222656,131.6999969482422,132.58999633789062,131.39999389648438,131.67999267578125,219900
2024-01-29,131.4542999267578,132.25,132.58999633789062,130.49000549316406,131.0500030517578,187800
2024-01-30,131.4542999267578,132.25,133.08999633789062,131.6300048828125,132.02999877929688,228400
2024-01-31,129.5000457763672,129.8800048828125,132.77000427246094,129.16000366210938,132.3699951171875,537500
2024-02-01,130.11822509765625,130.5,131.11000061035156,129.61000061035156,130.4600067138672,298800
2024-02-02,129.7194061279297,130.10000610351562,130.7100067138672,128.69000244140625,129.9600067138672,344800
2024-02-05,130.2677764892578,130.64999389648438,131.4499969482422,128.0500030517578,129.1300048828125,319500
2024-02-06,130.7463836669922,131.1300048828125,131.39999389648438,129.3000030517578,130.47999572753906,369700
2024-02-07,131.4144287109375,131.8000030517578,132.4199981689453,129.3699951171875,131.41000366210938,393000
2024-02-08,131.73348999023438,132.1199951171875,134.83999633789062,131.5399932861328,131.63999938964844,620700
2024-02-09,138.55348205566406,138.9600067138672,139.2100067138672,131.50999450683594,132.11000061035156,650900
2024-02-12,137.20742797851562,137.61000061035156,140.47000122070312,137.50999450683594,139.16000366210938,491300
2024-02-13,135.53233337402344,135.92999267578125,137.3300018310547,134.97999572753906,136.69000244140625,275900
2024-02-14,136.76870727539062,137.1699981689453,137.4600067138672,135.1699981689453,136.25999450683594,335000
2024-02-15,134.6449432373047,135.0399932861328,137.80999755859375,134.57000732421875,137.1699981689453,471400
2024-02-16,137.09774780273438,137.5,138.0,135.0399932861328,135.3699951171875,453900
2024-02-20,139.28134155273438,139.69000244140625,140.13999938964844,136.9499969482422,137.13999938964844,373000
2024-02-21,139.59043884277344,140.0,140.11000061035156,138.99000549316406,139.0800018310547,276300
2024-02-22,141.05613708496094,141.47000122070312,142.4199981689453,140.07000732421875,140.47000122070312,295700
2024-02-23,140.9464569091797,141.36000061035156,142.0500030517578,140.60000610351562,141.97000122070312,190300
2024-02-26,141.50482177734375,141.9199981689453,142.05999755859375,140.8000030517578,141.5,199200
2024-02-27,139.89952087402344,140.30999755859375,142.17999267578125,139.8000030517578,141.9199981689453,244600
2024-02-28,139.99923706054688,140.41000366210938,141.24000549316406,139.3300018310547,139.64999389648438,189600
2024-02-29,140.04910278320312,140.4600067138672,141.6300048828125,139.8300018310547,140.6300048828125,250600
2024-03-01,139.87957763671875,140.2899932861328,140.7899932861328,139.55999755859375,139.8800048828125,151400
2024-03-04,141.54470825195312,141.9600067138672,142.1199951171875,140.55999755859375,140.69000244140625,260300
2024-03-05,142.1030731201172,142.52000427246094,143.2100067138672,141.74000549316406,142.27000427246094,190200
2024-03-06,142.65145874023438,143.07000732421875,143.63999938964844,142.47999572753906,142.92999267578125,184000
2024-03-07,144.22682189941406,144.64999389648438,145.13999938964844,143.83999633789062,144.5,250100
2024-03-08,142.67138671875,143.08999633789062,145.07000732421875,142.97000122070312,144.7100067138672,185200
2024-03-11,142.3224334716797,142.74000549316406,143.3800048828125,141.97999572753906,142.7899932861328,226700
2024-03-12,141.99339294433594,142.41000366210938,142.85000610351562,141.47999572753906,142.8000030517578,242200
2024-03-13,140.74703979492188,141.16000366210938,143.0,140.92999267578125,143.0,336800
2024-03-14,140.51771545410156,140.92999267578125,141.6199951171875,140.36000061035156,141.36000061035156,235200
2024-03-15,140.58750915527344,141.0,142.41000366210938,139.74000549316406,140.0399932861328,599500
2024-03-18,138.85260009765625,139.25999450683594,141.3000030517578,138.92999267578125,140.92999267578125,299700
2024-03-19,139.10186767578125,139.50999450683594,140.32000732421875,138.8800048828125,138.8800048828125,253000
2024-03-20,139.56053161621094,139.97000122070312,140.07000732421875,139.13999938964844,139.6300048828125,220000
2024-03-21,140.7270965576172,141.13999938964844,141.60000610351562,139.3000030517578,140.30999755859375,255800
2024-03-22,141.17578125,141.58999633789062,142.4499969482422,141.0500030517578,142.00999450683594,276000
2024-03-25,142.54177856445312,142.9600067138672,144.0500030517578,141.1699981689453,141.1999969482422,316300
2024-03-26,142.78106689453125,143.1999969482422,144.30999755859375,142.6199951171875,142.8300018310547,314200
2024-03-27,144.23680114746094,144.66000366210938,145.14999389648438,143.6699981689453,143.6699981689453,218200
2024-03-28,143.46905517578125,143.88999938964844,145.35000610351562,143.64999389648438,144.82000732421875,247800
2024-04-01,141.8737335205078,142.2899932861328,143.7899932861328,142.1199951171875,143.7899932861328,204400
2024-04-02,140.21859741210938,140.6300048828125,141.83999633789062,140.38999938964844,141.83999633789062,202600
2024-04-03,140.46786499023438,140.8800048828125,141.19000244140625,139.8699951171875,140.6699981689453,258700
2024-04-04,141.33531188964844,141.75,142.75,140.97000122070312,141.8300018310547,403600
2024-04-05,141.31536865234375,141.72999572753906,142.75999450683594,140.9499969482422,141.3800048828125,288300
2024-04-08,140.09893798828125,140.50999450683594,142.3800048828125,140.38999938964844,141.6699981689453,312500
2024-04-09,139.89952087402344,140.30999755859375,141.10000610351562,139.36000061035156,140.4199981689453,242600
2024-04-10,138.9921875,139.39999389648438,140.22000122070312,138.4499969482422,138.97999572753906,200700
2024-04-11,138.72299194335938,139.1300048828125,140.0399932861328,138.4499969482422,139.25999450683594,265300
2024-04-12,136.7986297607422,137.1999969482422,138.9499969482422,135.9600067138672,138.1699981689453,299200
2024-04-15,137.7957000732422,138.1999969482422,139.80999755859375,137.8300018310547,138.61000061035156,319600
2024-04-16,138.18455505371094,138.58999633789062,139.38999938964844,137.36000061035156,137.7899932861328,281700
2024-04-17,137.9951171875,138.39999389648438,139.47999572753906,138.35000610351562,138.8800048828125,565400
2024-04-18,138.70303344726562,139.11000061035156,139.44000244140625,138.22000122070312,138.38999938964844,246600
2024-04-19,138.93235778808594,139.33999633789062,139.9199981689453,138.77000427246094,139.05999755859375,276600
2024-04-22,139.9095001220703,140.32000732421875,141.14999389648438,139.25,139.5500030517578,298800
2024-04-23,139.739990234375,140.14999389648438,141.16000366210938,139.52000427246094,139.77000427246094,417200
2024-04-24,140.00999450683594,140.00999450683594,140.89999389648438,139.63999938964844,139.9499969482422,559200
2024-04-25,140.17999267578125,140.17999267578125,141.25,138.9199981689453,139.83999633789062,694400
2024-04-26,143.3300018310547,143.3300018310547,148.50999450683594,141.89999389648438,142.0,489500
2024-04-29,146.3800048828125,146.3800048828125,148.02000427246094,144.3699951171875,144.89999389648438,676700
2024-04-30,144.3800048828125,144.3800048828125,146.10000610351562,144.05999755859375,145.74000549316406,585100
2024-05-01,145.3800048828125,145.3800048828125,147.2100067138672,144.5800018310547,144.99000549316406,359600
2024-05-02,145.9199981689453,145.9199981689453,146.72999572753906,145.2899932861328,145.75999450683594,356500
2024-05-03,146.80999755859375,146.80999755859375,147.1300048828125,144.83999633789062,147.11000061035156,303300
2024-05-06,149.0399932861328,149.0399932861328,149.0800018310547,147.16000366210938,147.75999450683594,260200
2024-05-07,149.72000122070312,149.72000122070312,150.3800048828125,148.32000732421875,148.32000732421875,392900
2024-05-08,150.7899932861328,150.7899932861328,150.8699951171875,149.47999572753906,149.72000122070312,223500
